# Frequency [Hz]	1 sigma PI curve
2.000000000000000000e+01 1.711953999999999872e-07
2.003125000000000000e+01 1.685433999999999976e-07
2.006250000000000000e+01 1.659364000000000061e-07
2.009375000000000000e+01 1.633736999999999881e-07
2.012500000000000000e+01 1.608545000000000061e-07
2.015625000000000000e+01 1.583779999999999905e-07
2.018750000000000000e+01 1.559433000000000118e-07
2.021875000000000000e+01 1.535498000000000109e-07
2.025000000000000000e+01 1.511965000000000132e-07
2.028125000000000000e+01 1.488829999999999972e-07
2.031250000000000000e+01 1.466081999999999959e-07
2.034375000000000000e+01 1.443716999999999877e-07
2.037500000000000000e+01 1.421725999999999902e-07
2.040625000000000000e+01 1.400102999999999974e-07
2.043750000000000000e+01 1.378842000000000033e-07
2.046875000000000000e+01 1.357934999999999910e-07
2.050000000000000000e+01 1.337376000000000077e-07
2.053125000000000000e+01 1.317158999999999943e-07
2.056250000000000000e+01 1.297277999999999978e-07
2.059375000000000000e+01 1.277725999999999936e-07
2.062500000000000000e+01 1.258497999999999944e-07
2.065625000000000000e+01 1.239587999999999943e-07
2.068750000000000000e+01 1.220989999999999871e-07
2.071875000000000000e+01 1.202697999999999935e-07
2.075000000000000000e+01 1.184708000000000049e-07
2.078125000000000000e+01 1.167012000000000048e-07
2.081250000000000000e+01 1.149607999999999953e-07
2.084375000000000000e+01 1.132487999999999996e-07
2.087500000000000000e+01 1.115647999999999959e-07
2.090625000000000000e+01 1.099084000000000023e-07
2.093750000000000000e+01 1.082788999999999943e-07
2.096875000000000000e+01 1.066759999999999952e-07
2.100000000000000000e+01 1.050992000000000045e-07
2.103125000000000000e+01 1.035479000000000030e-07
2.106250000000000000e+01 1.020218000000000010e-07
2.109375000000000000e+01 1.005203999999999979e-07
2.112500000000000000e+01 9.904326999999999562e-08
2.115625000000000000e+01 9.758997999999999597e-08
2.118750000000000000e+01 9.616011999999999405e-08
2.121875000000000000e+01 9.475327000000000154e-08
2.125000000000000000e+01 9.336902000000000024e-08
2.128125000000000000e+01 9.200699000000000138e-08
2.131250000000000000e+01 9.066677999999999656e-08
2.134375000000000000e+01 8.934800999999999698e-08
2.137500000000000000e+01 8.805031999999999378e-08
2.140625000000000000e+01 8.677332000000000161e-08
2.143750000000000000e+01 8.551667000000000471e-08
2.146875000000000000e+01 8.428000999999999422e-08
2.150000000000000000e+01 8.306298999999999752e-08
2.153125000000000000e+01 8.186526999999999889e-08
2.156250000000000000e+01 8.068653000000000220e-08
2.159375000000000000e+01 7.952643000000000493e-08
2.162500000000000000e+01 7.838464000000000116e-08
2.165625000000000000e+01 7.726086999999999771e-08
2.168750000000000000e+01 7.615479000000000188e-08
2.171875000000000000e+01 7.506610999999999401e-08
2.175000000000000000e+01 7.399452000000000103e-08
2.178125000000000000e+01 7.293973000000000326e-08
2.181250000000000000e+01 7.190146000000000412e-08
2.184375000000000000e+01 7.087941999999999717e-08
2.187500000000000000e+01 6.987335000000000542e-08
2.190625000000000000e+01 6.888294999999999941e-08
2.193750000000000000e+01 6.790797999999999528e-08
2.196875000000000000e+01 6.694817000000000622e-08
2.200000000000000000e+01 6.600325000000000573e-08
2.203125000000000000e+01 6.507299000000000650e-08
2.206250000000000000e+01 6.415713000000000508e-08
2.209375000000000000e+01 6.325543000000000435e-08
2.212500000000000000e+01 6.236764999999999400e-08
2.215625000000000000e+01 6.149355000000000340e-08
2.218750000000000000e+01 6.063291000000000212e-08
2.221875000000000000e+01 5.978550999999999945e-08
2.225000000000000000e+01 5.895110999999999827e-08
2.228125000000000000e+01 5.812951000000000103e-08
2.231250000000000000e+01 5.732048000000000057e-08
2.234375000000000000e+01 5.652381999999999931e-08
2.237500000000000000e+01 5.573932999999999967e-08
2.240625000000000000e+01 5.496678999999999771e-08
2.243750000000000000e+01 5.420602000000000220e-08
2.246875000000000000e+01 5.345680999999999916e-08
2.250000000000000000e+01 5.271897999999999738e-08
2.253125000000000000e+01 5.199232999999999927e-08
2.256250000000000000e+01 5.127668999999999698e-08
2.259375000000000000e+01 5.057185999999999952e-08
2.262500000000000000e+01 4.987768000000000224e-08
2.265625000000000000e+01 4.919397000000000068e-08
2.268750000000000000e+01 4.852054999999999702e-08
2.271875000000000000e+01 4.785725999999999982e-08
2.275000000000000000e+01 4.720393000000000121e-08
2.278125000000000000e+01 4.656038999999999993e-08
2.281250000000000000e+01 4.592649999999999769e-08
2.284375000000000000e+01 4.530208000000000327e-08
2.287500000000000000e+01 4.468698999999999852e-08
2.290625000000000000e+01 4.408108000000000180e-08
2.293750000000000000e+01 4.348419000000000181e-08
2.296875000000000000e+01 4.289616999999999705e-08
2.300000000000000000e+01 4.231688999999999903e-08
2.303125000000000000e+01 4.174621000000000281e-08
2.306250000000000000e+01 4.118562000000000031e-08
2.309375000000000000e+01 4.065002999999999968e-08
2.312500000000000000e+01 4.012211999999999876e-08
2.315625000000000000e+01 3.960176000000000243e-08
2.318750000000000000e+01 3.908882999999999891e-08
2.321875000000000000e+01 3.859560000000000184e-08
2.325000000000000000e+01 3.811411999999999825e-08
2.328125000000000000e+01 3.763928999999999690e-08
2.331250000000000000e+01 3.717100000000000244e-08
2.334375000000000000e+01 3.670989000000000050e-08
2.337500000000000000e+01 3.627055000000000313e-08
2.340625000000000000e+01 3.583703999999999808e-08
2.343750000000000000e+01 3.540927999999999955e-08
2.346875000000000000e+01 3.498719000000000189e-08
2.350000000000000000e+01 3.457153000000000252e-08
2.353125000000000000e+01 3.417565000000000202e-08
2.356250000000000000e+01 3.378482000000000328e-08
2.359375000000000000e+01 3.339896000000000064e-08
2.362500000000000000e+01 3.301801999999999803e-08
2.365625000000000000e+01 3.264190999999999983e-08
2.368750000000000000e+01 3.228075000000000270e-08
2.371875000000000000e+01 3.192803999999999928e-08
2.375000000000000000e+01 3.157962999999999675e-08
2.378125000000000000e+01 3.123548000000000224e-08
2.381250000000000000e+01 3.089553000000000322e-08
2.384375000000000000e+01 3.055970999999999724e-08
2.387500000000000000e+01 3.024111999999999783e-08
2.390625000000000000e+01 2.992630999999999899e-08
2.393750000000000000e+01 2.961518999999999852e-08
2.396875000000000000e+01 2.930770000000000044e-08
2.400000000000000000e+01 2.900379999999999863e-08
2.403125000000000000e+01 2.870344000000000030e-08
2.406250000000000000e+01 2.841714000000000057e-08
2.409375000000000000e+01 2.813578000000000063e-08
2.412500000000000000e+01 2.785756999999999896e-08
2.415625000000000000e+01 2.758246999999999936e-08
2.418750000000000000e+01 2.731042999999999913e-08
2.421875000000000000e+01 2.704141999999999863e-08
2.425000000000000000e+01 2.677844000000000126e-08
2.428125000000000000e+01 2.652672999999999986e-08
2.431250000000000000e+01 2.627770999999999900e-08
2.434375000000000000e+01 2.603133999999999916e-08
2.437500000000000000e+01 2.578759000000000070e-08
2.440625000000000000e+01 2.554643000000000067e-08
2.443750000000000000e+01 2.530782999999999945e-08
2.446875000000000000e+01 2.507354999999999889e-08
2.450000000000000000e+01 2.485054000000000092e-08
2.453125000000000000e+01 2.462977999999999888e-08
2.456250000000000000e+01 2.441126999999999939e-08
2.459375000000000000e+01 2.419496999999999963e-08
2.462500000000000000e+01 2.398085999999999984e-08
2.465625000000000000e+01 2.376891000000000038e-08
2.468750000000000000e+01 2.355909000000000162e-08
2.471875000000000000e+01 2.335653000000000103e-08
2.475000000000000000e+01 2.316061999999999937e-08
2.478125000000000000e+01 2.296661000000000120e-08
2.481250000000000000e+01 2.277446000000000037e-08
2.484375000000000000e+01 2.258416000000000031e-08
2.487500000000000000e+01 2.239569000000000127e-08
2.490625000000000000e+01 2.220902000000000030e-08
2.493750000000000000e+01 2.202414000000000083e-08
2.496875000000000000e+01 2.184347999999999993e-08
2.500000000000000000e+01 2.167113000000000104e-08
2.503125000000000000e+01 2.150034999999999969e-08
2.506250000000000000e+01 2.133112999999999932e-08
2.509375000000000000e+01 2.116344000000000028e-08
2.512500000000000000e+01 2.099728999999999915e-08
2.515625000000000000e+01 2.083263999999999973e-08
2.518750000000000000e+01 2.066947999999999881e-08
2.521875000000000000e+01 2.050779999999999984e-08
2.525000000000000000e+01 2.035055000000000021e-08
2.528125000000000000e+01 2.020009000000000112e-08
2.531250000000000000e+01 2.005091999999999966e-08
2.534375000000000000e+01 1.990302999999999925e-08
2.537500000000000000e+01 1.975641999999999990e-08
2.540625000000000000e+01 1.961105999999999866e-08
2.543750000000000000e+01 1.946694999999999883e-08
2.546875000000000000e+01 1.932408000000000054e-08
2.550000000000000000e+01 1.918242000000000085e-08
2.553125000000000000e+01 1.904197999999999963e-08
2.556250000000000000e+01 1.890817000000000089e-08
2.559375000000000000e+01 1.877772000000000120e-08
2.562500000000000000e+01 1.864831999999999873e-08
2.565625000000000000e+01 1.851997999999999998e-08
2.568750000000000000e+01 1.839266999999999869e-08
2.571875000000000000e+01 1.826638000000000160e-08
2.575000000000000000e+01 1.814111999999999867e-08
2.578125000000000000e+01 1.801687000000000005e-08
2.581250000000000000e+01 1.789360999999999938e-08
2.584375000000000000e+01 1.777134999999999985e-08
2.587500000000000000e+01 1.765188999999999952e-08
2.590625000000000000e+01 1.753862000000000038e-08
2.593750000000000000e+01 1.742622000000000065e-08
2.596875000000000000e+01 1.731467000000000055e-08
2.600000000000000000e+01 1.720396000000000022e-08
2.603125000000000000e+01 1.709409999999999952e-08
2.606250000000000000e+01 1.698506999999999871e-08
2.609375000000000000e+01 1.687686000000000121e-08
2.612500000000000000e+01 1.676947000000000041e-08
2.615625000000000000e+01 1.666289999999999961e-08
2.618750000000000000e+01 1.655711999999999917e-08
2.621875000000000000e+01 1.645213999999999898e-08
2.625000000000000000e+01 1.635395999999999922e-08
2.628125000000000000e+01 1.625695999999999842e-08
2.631250000000000000e+01 1.616065999999999907e-08
2.634375000000000000e+01 1.606503000000000155e-08
2.637500000000000000e+01 1.597007999999999910e-08
2.640625000000000000e+01 1.587580999999999835e-08
2.643750000000000000e+01 1.578219999999999954e-08
2.646875000000000000e+01 1.568925999999999923e-08
2.650000000000000000e+01 1.559697000000000099e-08
2.653125000000000000e+01 1.550533000000000150e-08
2.656250000000000000e+01 1.541434000000000077e-08
2.659375000000000000e+01 1.532397999999999902e-08
2.662500000000000000e+01 1.523804000000000004e-08
2.665625000000000000e+01 1.515486000000000075e-08
2.668750000000000000e+01 1.507222000000000154e-08
2.671875000000000000e+01 1.499012999999999898e-08
2.675000000000000000e+01 1.490857999999999982e-08
2.678125000000000000e+01 1.482757000000000073e-08
2.681250000000000000e+01 1.474710000000000008e-08
2.684375000000000000e+01 1.466714999999999975e-08
2.687500000000000000e+01 1.458772999999999963e-08
2.690625000000000000e+01 1.450883999999999971e-08
2.693750000000000000e+01 1.443046000000000023e-08
2.696875000000000000e+01 1.435258999999999955e-08
2.700000000000000000e+01 1.427522999999999931e-08
2.703125000000000000e+01 1.419999999999999977e-08
2.706250000000000000e+01 1.412907999999999935e-08
2.709375000000000000e+01 1.405860000000000024e-08
2.712500000000000000e+01 1.398854999999999922e-08
2.715625000000000000e+01 1.391892999999999962e-08
2.718750000000000000e+01 1.384972999999999990e-08
2.721875000000000000e+01 1.378095999999999994e-08
2.725000000000000000e+01 1.371260999999999986e-08
2.728125000000000000e+01 1.364466999999999978e-08
2.731250000000000000e+01 1.357714999999999959e-08
2.734375000000000000e+01 1.351003999999999939e-08
2.737500000000000000e+01 1.344332999999999932e-08
2.740625000000000000e+01 1.337702999999999925e-08
2.743750000000000000e+01 1.331113999999999918e-08
2.746875000000000000e+01 1.324563999999999935e-08
2.750000000000000000e+01 1.318466999999999930e-08
2.753125000000000000e+01 1.312490999999999950e-08
2.756250000000000000e+01 1.306548000000000067e-08
2.759375000000000000e+01 1.300639999999999926e-08
2.762500000000000000e+01 1.294765000000000047e-08
2.765625000000000000e+01 1.288921999999999946e-08
2.768750000000000000e+01 1.283112999999999930e-08
2.771875000000000000e+01 1.277337000000000011e-08
2.775000000000000000e+01 1.271593000000000036e-08
2.778125000000000000e+01 1.265881000000000005e-08
2.781250000000000000e+01 1.260201000000000082e-08
2.784375000000000000e+01 1.254552999999999938e-08
2.787500000000000000e+01 1.248937000000000068e-08
2.790625000000000000e+01 1.243351999999999989e-08
2.793750000000000000e+01 1.237798000000000030e-08
2.796875000000000000e+01 1.232340000000000069e-08
2.800000000000000000e+01 1.227304999999999951e-08
2.803125000000000000e+01 1.222295000000000027e-08
2.806250000000000000e+01 1.217311999999999942e-08
2.809375000000000000e+01 1.212354000000000051e-08
2.812500000000000000e+01 1.207422000000000010e-08
2.815625000000000000e+01 1.202515999999999986e-08
2.818750000000000000e+01 1.197634999999999990e-08
2.821875000000000000e+01 1.192779000000000023e-08
2.825000000000000000e+01 1.187947999999999918e-08
2.828125000000000000e+01 1.183142000000000007e-08
2.831250000000000000e+01 1.178360999999999960e-08
2.834375000000000000e+01 1.173603999999999952e-08
2.837500000000000000e+01 1.168871999999999973e-08
2.840625000000000000e+01 1.164164000000000034e-08
2.843750000000000000e+01 1.159479999999999971e-08
2.846875000000000000e+01 1.154819999999999947e-08
2.850000000000000000e+01 1.150251999999999969e-08
2.853125000000000000e+01 1.146057999999999932e-08
2.856250000000000000e+01 1.141883999999999983e-08
2.859375000000000000e+01 1.137728999999999970e-08
2.862500000000000000e+01 1.133594000000000046e-08
2.865625000000000000e+01 1.129479000000000045e-08
2.868750000000000000e+01 1.125382999999999980e-08
2.871875000000000000e+01 1.121306000000000015e-08
2.875000000000000000e+01 1.117247999999999987e-08
2.878125000000000000e+01 1.113210000000000047e-08
2.881250000000000000e+01 1.109190000000000054e-08
2.884375000000000000e+01 1.105189999999999985e-08
2.887500000000000000e+01 1.101208000000000030e-08
2.890625000000000000e+01 1.097245000000000009e-08
2.893750000000000000e+01 1.093299999999999937e-08
2.896875000000000000e+01 1.089372999999999977e-08
2.900000000000000000e+01 1.085464999999999953e-08
2.903125000000000000e+01 1.081575000000000042e-08
2.906250000000000000e+01 1.077704000000000066e-08
2.909375000000000000e+01 1.074165000000000043e-08
2.912500000000000000e+01 1.070710999999999985e-08
2.915625000000000000e+01 1.067272000000000076e-08
2.918750000000000000e+01 1.063846999999999997e-08
2.921875000000000000e+01 1.060438000000000056e-08
2.925000000000000000e+01 1.057041999999999957e-08
2.928125000000000000e+01 1.053661999999999995e-08
2.931250000000000000e+01 1.050295000000000042e-08
2.934375000000000000e+01 1.046943000000000073e-08
2.937500000000000000e+01 1.043605999999999922e-08
2.940625000000000000e+01 1.040281999999999944e-08
2.943750000000000000e+01 1.036972999999999951e-08
2.946875000000000000e+01 1.033676999999999966e-08
2.950000000000000000e+01 1.030395999999999964e-08
2.953125000000000000e+01 1.027127999999999971e-08
2.956250000000000000e+01 1.023873999999999974e-08
2.959375000000000000e+01 1.020633999999999973e-08
2.962500000000000000e+01 1.017407999999999967e-08
2.965625000000000000e+01 1.014194999999999970e-08
2.968750000000000000e+01 1.011012999999999929e-08
2.971875000000000000e+01 1.008179999999999966e-08
2.975000000000000000e+01 1.005359000000000023e-08
2.978125000000000000e+01 1.002547999999999959e-08
2.981250000000000000e+01 9.997480999999999590e-09
2.984375000000000000e+01 9.969589000000000613e-09
2.987500000000000000e+01 9.941803999999999349e-09
2.990625000000000000e+01 9.914126000000000760e-09
2.993750000000000000e+01 9.886552999999999246e-09
2.996875000000000000e+01 9.859086000000000090e-09
3.000000000000000000e+01 9.831722999999999344e-09
3.003125000000000000e+01 9.804465000000000636e-09
3.006250000000000000e+01 9.777310000000000020e-09
3.009375000000000000e+01 9.750258999999999469e-09
3.012500000000000000e+01 9.723311000000000318e-09
3.015625000000000000e+01 9.696465000000000595e-09
3.018750000000000000e+01 9.669719999999999981e-09
3.021875000000000000e+01 9.643078000000000767e-09
3.025000000000000000e+01 9.616535000000000024e-09
3.028125000000000000e+01 9.590094000000000363e-09
3.031250000000000000e+01 9.563751999999999174e-09
3.034375000000000000e+01 9.537508999999999764e-09
3.037500000000000000e+01 9.513988999999999829e-09
3.040625000000000000e+01 9.491189999999999771e-09
3.043750000000000000e+01 9.468467999999999444e-09
3.046875000000000000e+01 9.445824000000000819e-09
3.050000000000000000e+01 9.423257000000000271e-09
3.053125000000000000e+01 9.400766999999999452e-09
3.056250000000000000e+01 9.378354000000000017e-09
3.059375000000000000e+01 9.356016999999999994e-09
3.062500000000000000e+01 9.333755999999999382e-09
3.065625000000000000e+01 9.311569999999999517e-09
3.068750000000000000e+01 9.289460000000000717e-09
3.071875000000000000e+01 9.267424999999999355e-09
3.075000000000000000e+01 9.245464000000000076e-09
3.078125000000000000e+01 9.223577999999999889e-09
3.081250000000000000e+01 9.201764999999999812e-09
3.084375000000000000e+01 9.180026000000000162e-09
3.087500000000000000e+01 9.158360999999999286e-09
3.090625000000000000e+01 9.136767999999999855e-09
3.093750000000000000e+01 9.115248000000000533e-09
3.096875000000000000e+01 9.093799999999999347e-09
3.100000000000000000e+01 9.072424999999999925e-09
3.103125000000000000e+01 9.051120999999999975e-09
3.106250000000000000e+01 9.029994000000000199e-09
3.109375000000000000e+01 9.011852000000000697e-09
3.112500000000000000e+01 8.993765000000000530e-09
3.115625000000000000e+01 8.975732999999999697e-09
3.118750000000000000e+01 8.957753999999999216e-09
3.121875000000000000e+01 8.939829999999999723e-09
3.125000000000000000e+01 8.921959000000000582e-09
3.128125000000000000e+01 8.904142000000000456e-09
3.131250000000000000e+01 8.886378000000000681e-09
3.134375000000000000e+01 8.868666999999999604e-09
3.137500000000000000e+01 8.851009999999999196e-09
3.140625000000000000e+01 8.833404000000000157e-09
3.143750000000000000e+01 8.815852000000000133e-09
3.146875000000000000e+01 8.798350999999999823e-09
3.150000000000000000e+01 8.780902999999999864e-09
3.153125000000000000e+01 8.763505999999999619e-09
3.156250000000000000e+01 8.746160999999999407e-09
3.159375000000000000e+01 8.728867999999999227e-09
3.162500000000000000e+01 8.711626000000000415e-09
3.165625000000000000e+01 8.694434999999999662e-09
3.168750000000000000e+01 8.677293999999999959e-09
3.171875000000000000e+01 8.660205000000000288e-09
3.175000000000000000e+01 8.643164999999999693e-09
3.178125000000000000e+01 8.626176000000000467e-09
3.181250000000000000e+01 8.609237000000000635e-09
3.184375000000000000e+01 8.594270000000000763e-09
3.187500000000000000e+01 8.580231000000000580e-09
3.190625000000000000e+01 8.566229999999999276e-09
3.193750000000000000e+01 8.552264999999999521e-09
3.196875000000000000e+01 8.538335999999999662e-09
3.200000000000000000e+01 8.524442999999999697e-09
3.203125000000000000e+01 8.510586999999999947e-09
3.206250000000000000e+01 8.496765999999999773e-09
3.209375000000000000e+01 8.482981999999999813e-09
3.212500000000000000e+01 8.469232999999999430e-09
3.215625000000000000e+01 8.455520000000000596e-09
3.218750000000000000e+01 8.441841999999999684e-09
3.221875000000000000e+01 8.428200000000000322e-09
3.225000000000000000e+01 8.414593000000000537e-09
3.228125000000000000e+01 8.401021000000000328e-09
3.231250000000000000e+01 8.387483999999999695e-09
3.234375000000000000e+01 8.373982000000000293e-09
3.237500000000000000e+01 8.360515000000000468e-09
3.240625000000000000e+01 8.347081999999999900e-09
3.243750000000000000e+01 8.333684000000000563e-09
